Zeit [h]	Variante 1 Raumlufttemperatur [C]	Variante 1 Lueftungswaermestrom [W]	Variante 2 Raumlufttemperatur [C]	Variante 2 Lueftungswaermestrom [W]	Variante 3 Raumlufttemperatur [C]	Variante 3 Lueftungswaermestrom [W]	Variante 4 Raumlufttemperatur [C]	Variante 4 Lueftungswaermestrom [W]
0	5	0	5	0	5	0	5	0
1	5	0	4.9369	-51.4153	4.98096	-14.1547	4.98094	-14.1549
2	5	0	4.9872	0.383168	4.99608	0.0295745	4.99562	0.0302312
3	5	0	4.99016	0.224685	4.99698	0.0172244	4.99449	0.0241487
4	5	0	4.99164	0.182356	4.99742	0.014033	4.99258	0.0327279
5	4.99997	0	4.99247	0.1597	4.99765	0.0123693	4.99114	0.0413746
6	4.99992	0	4.99293	0.147014	4.99775	0.0115465	4.99024	0.0472108
7	4.99984	0	4.99316	0.140239	4.99776	0.0112881	4.98973	0.0506955
8	4.99972	0	4.99325	0.1371	4.99771	0.0114137	4.98944	0.0526784
9	4.9996	0	4.99326	0.136143	4.99762	0.011781	4.98929	0.0537396
10	4.99946	0	4.99323	0.136441	4.99751	0.012282	4.98923	0.0542758
11	4.99933	0	4.99317	0.137395	4.9974	0.0128395	4.9892	0.0544963
12	4.99921	0	4.99311	0.13863	4.99729	0.0134022	4.98921	0.0545357
13	4.99909	0	4.99304	0.139929	4.99719	0.013939	4.98923	0.0544682
14	4.99899	0	4.99298	0.141166	4.9971	0.0144329	4.98926	0.0543385
15	4.9989	0	4.99293	0.14228	4.99701	0.014877	4.98929	0.0541728
16	4.99882	0	4.99289	0.143241	4.99694	0.0152692	4.98933	0.0539862
17	4.99875	0	4.99285	0.144043	4.99688	0.0156116	4.98937	0.0537878
18	4.99869	0	4.99282	0.144693	4.99682	0.0159076	4.98941	0.0535829
19	4.99864	0	4.9928	0.1452	4.99678	0.0161618	4.98945	0.0533745
20	4.99859	0	4.99279	0.14558	4.99674	0.0163786	4.98949	0.0531644
21	4.99855	0	4.99278	0.145846	4.99671	0.0165625	4.98954	0.0529536
22	4.99852	0	4.99277	0.146012	4.99668	0.0167178	4.98958	0.0527428
23	4.99849	0	4.99277	0.146091	4.99665	0.0168482	4.98962	0.0525324
24	4.99847	0	4.99277	0.146096	4.99663	0.0169571	4.98966	0.0523225
25	4.99845	0	4.99277	0.146036	4.99662	0.0170474	4.9897	0.0521133
26	4.99843	0	4.99278	0.14592	4.9966	0.0171217	4.98974	0.0519048
27	4.99841	0	4.99279	0.145757	4.99659	0.0171823	4.98979	0.0516971
28	4.9984	0	4.9928	0.145553	4.99658	0.017231	4.98983	0.0514902
29	4.99839	0	4.99281	0.145314	4.99658	0.0172696	4.98987	0.0512841
30	4.99838	0	4.99283	0.145045	4.99657	0.0172995	4.98991	0.0510788
31	4.99837	0	4.99284	0.144752	4.99657	0.017322	4.98995	0.0508743
32	4.99837	0	4.99286	0.144436	4.99657	0.017338	4.98999	0.0506706
33	4.99836	0	4.99288	0.144103	4.99657	0.0173486	4.99003	0.0504678
34	4.99836	0	4.99289	0.143754	4.99656	0.0173545	4.99007	0.0502657
35	4.99835	0	4.99291	0.143392	4.99656	0.0173563	4.99011	0.0500645
36	4.99835	0	4.99293	0.143019	4.99656	0.0173547	4.99015	0.0498641
37	4.99835	0	4.99295	0.142638	4.99657	0.0173502	4.99019	0.0496644
38	4.99835	0	4.99297	0.142248	4.99657	0.0173431	4.99023	0.0494656
39	4.99834	0	4.99299	0.141852	4.99657	0.0173339	4.99026	0.0492676
40	4.99834	0	4.99301	0.14145	4.99657	0.0173229	4.9903	0.0490704
41	4.99834	0	4.99303	0.141044	4.99657	0.0173102	4.99034	0.0488739
42	4.99834	0	4.99305	0.140635	4.99658	0.0172962	4.99038	0.0486782
43	4.99834	0	4.99307	0.140223	4.99658	0.017281	4.99042	0.0484834
44	4.99834	0	4.99309	0.139808	4.99658	0.0172649	4.99046	0.0482893
45	4.99834	0	4.99311	0.139392	4.99659	0.0172479	4.9905	0.0480959
46	4.99834	0	4.99313	0.138974	4.99659	0.0172302	4.99054	0.0479034
47	4.99834	0	4.99315	0.138556	4.99659	0.0172119	4.99057	0.0477116
48	4.99834	0	4.99317	0.138137	4.9966	0.0171931	4.99061	0.0475206
49	4.99834	0	4.99319	0.137717	4.9966	0.0171738	4.99065	0.0473304
50	4.99834	0	4.99322	0.137298	4.99661	0.0171542	4.99069	0.0471409
51	4.99834	0	4.99324	0.136879	4.99661	0.0171342	4.99072	0.0469522
52	4.99834	0	4.99326	0.13646	4.99661	0.017114	4.99076	0.0467642
53	4.99834	0	4.99328	0.136041	4.99662	0.0170935	4.9908	0.046577
54	4.99834	0	4.9933	0.135623	4.99662	0.0170729	4.99083	0.0463905
55	4.99835	0	4.99332	0.135205	4.99663	0.0170521	4.99087	0.0462048
56	4.99835	0	4.99334	0.134788	4.99663	0.0170311	4.99091	0.0460198
57	4.99835	0	4.99336	0.134372	4.99663	0.0170101	4.99094	0.0458356
58	4.99835	0	4.99338	0.133957	4.99664	0.016989	4.99098	0.0456521
59	4.99835	0	4.9934	0.133543	4.99664	0.0169678	4.99102	0.0454693
60	4.99835	0	4.99342	0.13313	4.99665	0.0169465	4.99105	0.0452873
61	4.99835	0	4.99344	0.132718	4.99665	0.0169252	4.99109	0.045106
62	4.99835	0	4.99346	0.132307	4.99665	0.0169038	4.99112	0.0449254
63	4.99835	0	4.99348	0.131897	4.99666	0.0168825	4.99116	0.0447456
64	4.99835	0	4.9935	0.131488	4.99666	0.0168611	4.99119	0.0445664
65	4.99835	0	4.99352	0.13108	4.99667	0.0168397	4.99123	0.044388
66	4.99836	0	4.99354	0.130674	4.99667	0.0168182	4.99127	0.0442103
67	4.99836	0	4.99356	0.130268	4.99668	0.0167968	4.9913	0.0440333
68	4.99836	0	4.99358	0.129864	4.99668	0.0167754	4.99133	0.043857
69	4.99836	0	4.9936	0.129461	4.99669	0.016754	4.99137	0.0436815
70	4.99836	0	4.99362	0.129059	4.99669	0.0167326	4.9914	0.0435066
71	4.99836	0	4.99364	0.128658	4.99669	0.0167113	4.99144	0.0433324
72	4.99836	0	4.99366	0.128259	4.9967	0.0166899	4.99147	0.0431589
73	4.99836	0	4.99368	0.127861	4.9967	0.0166685	4.99151	0.0429862
74	4.99836	0	4.9937	0.127464	4.99671	0.0166472	4.99154	0.0428141
75	4.99836	0	4.99372	0.127068	4.99671	0.0166259	4.99157	0.0426427
76	4.99836	0	4.99374	0.126673	4.99672	0.0166046	4.99161	0.042472
77	4.99837	0	4.99376	0.126279	4.99672	0.0165833	4.99164	0.0423019
78	4.99837	0	4.99378	0.125887	4.99672	0.016562	4.99167	0.0421326
79	4.99837	0	4.9938	0.125496	4.99673	0.0165408	4.99171	0.0419639
80	4.99837	0	4.99382	0.125106	4.99673	0.0165196	4.99174	0.0417959
81	4.99837	0	4.99384	0.124718	4.99674	0.0164984	4.99177	0.0416286
82	4.99837	0	4.99386	0.12433	4.99674	0.0164773	4.99181	0.0414619
83	4.99837	0	4.99388	0.123944	4.99674	0.0164561	4.99184	0.0412959
84	4.99837	0	4.99389	0.123559	4.99675	0.016435	4.99187	0.0411306
85	4.99837	0	4.99391	0.123175	4.99675	0.0164139	4.99191	0.0409659
86	4.99837	0	4.99393	0.122792	4.99676	0.0163929	4.99194	0.0408019
87	4.99838	0	4.99395	0.122411	4.99676	0.0163718	4.99197	0.0406386
88	4.99838	0	4.99397	0.12203	4.99676	0.0163508	4.992	0.0404759
89	4.99838	0	4.99399	0.121651	4.99677	0.0163298	4.99203	0.0403139
90	4.99838	0	4.99401	0.121273	4.99677	0.0163089	4.99207	0.0401525
91	4.99838	0	4.99402	0.120896	4.99678	0.016288	4.9921	0.0399917
92	4.99838	0	4.99404	0.120521	4.99678	0.0162671	4.99213	0.0398316
93	4.99838	0	4.99406	0.120146	4.99679	0.0162462	4.99216	0.0396722
94	4.99838	0	4.99408	0.119773	4.99679	0.0162253	4.99219	0.0395133
95	4.99838	0	4.9941	0.119401	4.99679	0.0162045	4.99222	0.0393551
96	4.99838	0	4.99412	0.11903	4.9968	0.0161837	4.99226	0.0391976
97	4.99838	0	4.99414	0.11866	4.9968	0.0161629	4.99229	0.0390407
98	4.99839	0	4.99415	0.118291	4.99681	0.0161422	4.99232	0.0388844
99	4.99839	0	4.99417	0.117924	4.99681	0.0161215	4.99235	0.0387287
100	4.99839	0	4.99419	0.117557	4.99681	0.0161008	4.99238	0.0385737
101	4.99839	0	4.99421	0.117192	4.99682	0.0160801	4.99241	0.0384192
102	4.99839	0	4.99423	0.116828	4.99682	0.0160595	4.99244	0.0382654
103	4.99839	0	4.99424	0.116465	4.99683	0.0160389	4.99247	0.0381122
104	4.99839	0	4.99426	0.116103	4.99683	0.0160183	4.9925	0.0379596
105	4.99839	0	4.99428	0.115742	4.99683	0.0159977	4.99253	0.0378077
106	4.99839	0	4.9943	0.115383	4.99684	0.0159772	4.99256	0.0376563
107	4.99839	0	4.99432	0.115024	4.99684	0.0159567	4.99259	0.0375056
108	4.9984	0	4.99433	0.114667	4.99685	0.0159362	4.99262	0.0373554
109	4.9984	0	4.99435	0.11431	4.99685	0.0159157	4.99265	0.0372059
110	4.9984	0	4.99437	0.113955	4.99686	0.0158953	4.99268	0.0370569
111	4.9984	0	4.99439	0.113601	4.99686	0.0158749	4.99271	0.0369086
112	4.9984	0	4.9944	0.113248	4.99686	0.0158545	4.99274	0.0367608
113	4.9984	0	4.99442	0.112896	4.99687	0.0158342	4.99277	0.0366136
114	4.9984	0	4.99444	0.112545	4.99687	0.0158139	4.9928	0.0364671
115	4.9984	0	4.99446	0.112196	4.99688	0.0157936	4.99282	0.0363211
116	4.9984	0	4.99447	0.111847	4.99688	0.0157733	4.99285	0.0361757
117	4.9984	0	4.99449	0.1115	4.99688	0.015753	4.99288	0.0360308
118	4.9984	0	4.99451	0.111153	4.99689	0.0157328	4.99291	0.0358866
119	4.9984	0	4.99452	0.110808	4.99689	0.0157126	4.99294	0.0357429
120	4.99841	0	4.99454	0.110463	4.9969	0.0156925	4.99297	0.0355998
121	4.99841	0	4.99456	0.11012	4.9969	0.0156723	4.99299	0.0354573
122	4.99841	0	4.99458	0.109778	4.9969	0.0156522	4.99302	0.0353154
123	4.99841	0	4.99459	0.109437	4.99691	0.0156321	4.99305	0.035174
124	4.99841	0	4.99461	0.109097	4.99691	0.015612	4.99308	0.0350332
125	4.99841	0	4.99463	0.108758	4.99692	0.015592	4.99311	0.0348929
126	4.99841	0	4.99464	0.10842	4.99692	0.015572	4.99313	0.0347532
127	4.99841	0	4.99466	0.108083	4.99692	0.015552	4.99316	0.0346141
128	4.99841	0	4.99467	0.107747	4.99693	0.015532	4.99319	0.0344755
129	4.99841	0	4.99469	0.107412	4.99693	0.0155121	4.99322	0.0343375
130	4.99842	0	4.99471	0.107079	4.99693	0.0154922	4.99324	0.0342
131	4.99842	0	4.99472	0.106746	4.99694	0.0154723	4.99327	0.0340631
132	4.99842	0	4.99474	0.106414	4.99694	0.0154524	4.9933	0.0339267
133	4.99842	0	4.99476	0.106084	4.99695	0.0154326	4.99332	0.0337909
134	4.99842	0	4.99477	0.105754	4.99695	0.0154128	4.99335	0.0336557
135	4.99842	0	4.99479	0.105425	4.99695	0.015393	4.99338	0.0335209
136	4.99842	0	4.99481	0.105098	4.99696	0.0153733	4.9934	0.0333867
137	4.99842	0	4.99482	0.104771	4.99696	0.0153535	4.99343	0.0332531
138	4.99842	0	4.99484	0.104446	4.99697	0.0153338	4.99346	0.0331199
139	4.99842	0	4.99485	0.104121	4.99697	0.0153141	4.99348	0.0329873
140	4.99843	0	4.99487	0.103798	4.99697	0.0152945	4.99351	0.0328553
141	4.99843	0	4.99489	0.103475	4.99698	0.0152748	4.99353	0.0327238
142	4.99843	0	4.9949	0.103153	4.99698	0.0152552	4.99356	0.0325927
143	4.99843	0	4.99492	0.102833	4.99699	0.0152357	4.99359	0.0324623
144	4.99843	0	4.99493	0.102513	4.99699	0.0152161	4.99361	0.0323323
145	4.99843	0	4.99495	0.102195	4.99699	0.0151966	4.99364	0.0322029
146	4.99843	0	4.99496	0.101877	4.997	0.0151771	4.99366	0.0320739
147	4.99843	0	4.99498	0.101561	4.997	0.0151576	4.99369	0.0319455
148	4.99843	0	4.995	0.101245	4.997	0.0151381	4.99371	0.0318177
149	4.99843	0	4.99501	0.100931	4.99701	0.0151187	4.99374	0.0316903
150	4.99843	0	4.99503	0.100617	4.99701	0.0150993	4.99376	0.0315634
151	4.99843	0	4.99504	0.100304	4.99702	0.0150799	4.99379	0.031437
152	4.99844	0	4.99506	0.0999927	4.99702	0.0150606	4.99381	0.0313112
153	4.99844	0	4.99507	0.099682	4.99702	0.0150412	4.99384	0.0311858
154	4.99844	0	4.99509	0.0993723	4.99703	0.0150219	4.99386	0.031061
155	4.99844	0	4.9951	0.0990635	4.99703	0.0150026	4.99389	0.0309366
156	4.99844	0	4.99512	0.0987557	4.99704	0.0149834	4.99391	0.0308128
157	4.99844	0	4.99514	0.0984488	4.99704	0.0149642	4.99394	0.0306894
158	4.99844	0	4.99515	0.0981429	4.99704	0.0149449	4.99396	0.0305666
159	4.99844	0	4.99517	0.097838	4.99705	0.0149258	4.99399	0.0304442
160	4.99844	0	4.99518	0.097534	4.99705	0.0149066	4.99401	0.0303223
161	4.99844	0	4.99519	0.0972309	4.99705	0.0148875	4.99403	0.0302009
162	4.99845	0	4.99521	0.0969288	4.99706	0.0148684	4.99406	0.03008
163	4.99845	0	4.99522	0.0966276	4.99706	0.0148493	4.99408	0.0299596
164	4.99845	0	4.99524	0.0963274	4.99707	0.0148302	4.9941	0.0298397
165	4.99845	0	4.99525	0.096028	4.99707	0.0148112	4.99413	0.0297202
166	4.99845	0	4.99527	0.0957296	4.99707	0.0147922	4.99415	0.0296012
167	4.99845	0	4.99528	0.0954322	4.99708	0.0147732	4.99418	0.0294827
168	4.99845	0	4.9953	0.0951357	4.99708	0.0147542	4.9942	0.0293647
169	4.99845	0	4.99531	0.09484	4.99709	0.0147353	4.99422	0.0292471
170	4.99845	0	4.99533	0.0945454	4.99709	0.0147164	4.99424	0.02913
171	4.99845	0	4.99534	0.0942516	4.99709	0.0146975	4.99427	0.0290134
172	4.99845	0	4.99536	0.0939587	4.9971	0.0146786	4.99429	0.0288973
173	4.99845	0	4.99537	0.0936668	4.9971	0.0146598	4.99431	0.0287816
174	4.99846	0	4.99539	0.0933757	4.9971	0.0146409	4.99434	0.0286664
175	4.99846	0	4.9954	0.0930856	4.99711	0.0146222	4.99436	0.0285516
176	4.99846	0	4.99541	0.0927963	4.99711	0.0146034	4.99438	0.0284373
177	4.99846	0	4.99543	0.092508	4.99711	0.0145846	4.9944	0.0283234
178	4.99846	0	4.99544	0.0922205	4.99712	0.0145659	4.99443	0.0282101
179	4.99846	0	4.99546	0.091934	4.99712	0.0145472	4.99445	0.0280971
180	4.99846	0	4.99547	0.0916483	4.99712	0.0145285	4.99447	0.0279846
181	4.99846	0	4.99549	0.0913636	4.99713	0.0145099	4.99449	0.0278726
182	4.99846	0	4.9955	0.0910797	4.99713	0.0144913	4.99451	0.027761
183	4.99846	0	4.99551	0.0907967	4.99714	0.0144727	4.99454	0.0276499
184	4.99847	0	4.99553	0.0905145	4.99714	0.0144541	4.99456	0.0275392
185	4.99847	0	4.99554	0.0902333	4.99714	0.0144356	4.99458	0.0274289
186	4.99847	0	4.99556	0.0899529	4.99715	0.014417	4.9946	0.0273191
187	4.99847	0	4.99557	0.0896734	4.99715	0.0143985	4.99462	0.0272098
188	4.99847	0	4.99558	0.0893947	4.99716	0.01438	4.99465	0.0271008
189	4.99847	0	4.9956	0.089117	4.99716	0.0143616	4.99467	0.0269923
190	4.99847	0	4.99561	0.0888401	4.99716	0.0143431	4.99469	0.0268843
191	4.99847	0	4.99562	0.088564	4.99717	0.0143247	4.99471	0.0267766
192	4.99847	0	4.99564	0.0882888	4.99717	0.0143063	4.99473	0.0266694
193	4.99847	0	4.99565	0.0880145	4.99717	0.014288	4.99475	0.0265627
194	4.99847	0	4.99566	0.087741	4.99718	0.0142696	4.99477	0.0264563
195	4.99848	0	4.99568	0.0874684	4.99718	0.0142513	4.99479	0.0263504
196	4.99848	0	4.99569	0.0871966	4.99718	0.014233	4.99481	0.0262449
197	4.99848	0	4.9957	0.0869256	4.99719	0.0142148	4.99484	0.0261398
198	4.99848	0	4.99572	0.0866555	4.99719	0.0141965	4.99486	0.0260352
199	4.99848	0	4.99573	0.0863863	4.99719	0.0141783	4.99488	0.025931
200	4.99848	0	4.99574	0.0861179	4.9972	0.0141601	4.9949	0.0258272
201	4.99848	0	4.99576	0.0858503	4.9972	0.0141419	4.99492	0.0257238
202	4.99848	0	4.99577	0.0855835	4.99721	0.0141238	4.99494	0.0256208
203	4.99848	0	4.99578	0.0853176	4.99721	0.0141056	4.99496	0.0255182
204	4.99848	0	4.9958	0.0850525	4.99721	0.0140875	4.99498	0.0254161
205	4.99848	0	4.99581	0.0847882	4.99722	0.0140695	4.995	0.0253143
206	4.99848	0	4.99582	0.0845247	4.99722	0.0140514	4.99502	0.025213
207	4.99848	0	4.99584	0.0842621	4.99722	0.0140333	4.99504	0.025112
208	4.99849	0	4.99585	0.0840003	4.99723	0.0140153	4.99506	0.0250115
209	4.99849	0	4.99586	0.0837393	4.99723	0.0139974	4.99508	0.0249114
210	4.99849	0	4.99587	0.0834791	4.99723	0.0139794	4.9951	0.0248116
211	4.99849	0	4.99589	0.0832197	4.99724	0.0139614	4.99512	0.0247123
212	4.99849	0	4.9959	0.0829611	4.99724	0.0139435	4.99514	0.0246134
213	4.99849	0	4.99591	0.0827033	4.99725	0.0139256	4.99516	0.0245148
214	4.99849	0	4.99593	0.0824463	4.99725	0.0139077	4.99518	0.0244167
215	4.99849	0	4.99594	0.0821902	4.99725	0.0138899	4.99519	0.0243189
216	4.99849	0	4.99595	0.0819348	4.99726	0.0138721	4.99521	0.0242216
217	4.99849	0	4.99596	0.0816802	4.99726	0.0138543	4.99523	0.0241246
218	4.9985	0	4.99598	0.0814264	4.99726	0.0138365	4.99525	0.024028
219	4.9985	0	4.99599	0.0811734	4.99727	0.0138187	4.99527	0.0239318
220	4.9985	0	4.996	0.0809211	4.99727	0.013801	4.99529	0.023836
221	4.9985	0	4.99601	0.0806697	4.99727	0.0137833	4.99531	0.0237406
222	4.9985	0	4.99603	0.080419	4.99728	0.0137656	4.99533	0.0236456
223	4.9985	0	4.99604	0.0801691	4.99728	0.0137479	4.99535	0.0235509
224	4.9985	0	4.99605	0.07992	4.99728	0.0137303	4.99536	0.0234566
225	4.9985	0	4.99606	0.0796717	4.99729	0.0137126	4.99538	0.0233627
226	4.9985	0	4.99608	0.0794241	4.99729	0.013695	4.9954	0.0232692
227	4.9985	0	4.99609	0.0791773	4.99729	0.0136775	4.99542	0.023176
228	4.9985	0	4.9961	0.0789313	4.9973	0.0136599	4.99544	0.0230832
229	4.9985	0	4.99611	0.0786861	4.9973	0.0136424	4.99546	0.0229908
230	4.99851	0	4.99612	0.0784416	4.9973	0.0136249	4.99548	0.0228988
231	4.99851	0	4.99614	0.0781978	4.99731	0.0136074	4.99549	0.0228071
232	4.99851	0	4.99615	0.0779549	4.99731	0.0135899	4.99551	0.0227158
233	4.99851	0	4.99616	0.0777126	4.99732	0.0135724	4.99553	0.0226249
234	4.99851	0	4.99617	0.0774712	4.99732	0.013555	4.99555	0.0225343
235	4.99851	0	4.99618	0.0772304	4.99732	0.0135376	4.99557	0.0224441
236	4.99851	0	4.9962	0.0769905	4.99733	0.0135203	4.99558	0.0223542
237	4.99851	0	4.99621	0.0767512	4.99733	0.0135029	4.9956	0.0222647
238	4.99851	0	4.99622	0.0765127	4.99733	0.0134856	4.99562	0.0221756
239	4.99851	0	4.99623	0.076275	4.99733	0.0134683	4.99564	0.0220868
240	4.99851	0	4.99624	0.076038	4.99734	0.013451	4.99565	0.0219984
241	4.99852	0	4.99625	0.0758017	4.99734	0.0134337	4.99567	0.0219103
242	4.99852	0	4.99627	0.0755662	4.99735	0.0134165	4.99569	0.0218226
243	4.99852	0	4.99628	0.0753314	4.99735	0.0133992	4.99571	0.0217353
244	4.99852	0	4.99629	0.0750973	4.99735	0.013382	4.99572	0.0216482
245	4.99852	0	4.9963	0.074864	4.99736	0.0133649	4.99574	0.0215616
246	4.99852	0	4.99631	0.0746313	4.99736	0.0133477	4.99576	0.0214753
247	4.99852	0	4.99632	0.0743994	4.99736	0.0133306	4.99577	0.0213893
248	4.99852	0	4.99634	0.0741683	4.99737	0.0133135	4.99579	0.0213037
249	4.99852	0	4.99635	0.0739378	4.99737	0.0132964	4.99581	0.0212184
250	4.99852	0	4.99636	0.0737081	4.99737	0.0132793	4.99582	0.0211334
251	4.99852	0	4.99637	0.073479	4.99738	0.0132623	4.99584	0.0210488
252	4.99852	0	4.99638	0.0732507	4.99738	0.0132452	4.99586	0.0209645
253	4.99852	0	4.99639	0.0730231	4.99738	0.0132282	4.99587	0.0208806
254	4.99853	0	4.9964	0.0727962	4.99739	0.0132113	4.99589	0.020797
255	4.99853	0	4.99641	0.07257	4.99739	0.0131943	4.99591	0.0207138
256	4.99853	0	4.99643	0.0723445	4.99739	0.0131774	4.99592	0.0206308
257	4.99853	0	4.99644	0.0721197	4.9974	0.0131605	4.99594	0.0205482
258	4.99853	0	4.99645	0.0718956	4.9974	0.0131436	4.99596	0.020466
259	4.99853	0	4.99646	0.0716722	4.9974	0.0131267	4.99597	0.0203841
260	4.99853	0	4.99647	0.0714495	4.99741	0.0131098	4.99599	0.0203024
261	4.99853	0	4.99648	0.0712275	4.99741	0.013093	4.99601	0.0202212
262	4.99853	0	4.99649	0.0710062	4.99741	0.0130762	4.99602	0.0201402
263	4.99853	0	4.9965	0.0707856	4.99742	0.0130594	4.99604	0.0200596
264	4.99854	0	4.99651	0.0705656	4.99742	0.0130427	4.99605	0.0199793
265	4.99854	0	4.99652	0.0703463	4.99742	0.0130259	4.99607	0.0198993
266	4.99854	0	4.99653	0.0701278	4.99743	0.0130092	4.99608	0.0198196
267	4.99854	0	4.99655	0.0699098	4.99743	0.0129925	4.9961	0.0197403
268	4.99854	0	4.99656	0.0696926	4.99743	0.0129758	4.99611	0.0196613
269	4.99854	0	4.99657	0.0694761	4.99744	0.0129592	4.99613	0.0195825
270	4.99854	0	4.99658	0.0692602	4.99744	0.0129425	4.99615	0.0195041
271	4.99854	0	4.99659	0.069045	4.99744	0.0129259	4.99616	0.0194261
272	4.99854	0	4.9966	0.0688304	4.99745	0.0129093	4.99618	0.0193483
273	4.99854	0	4.99661	0.0686166	4.99745	0.0128928	4.99619	0.0192708
274	4.99854	0	4.99662	0.0684034	4.99745	0.0128762	4.99621	0.0191937
275	4.99854	0	4.99663	0.0681908	4.99746	0.0128597	4.99622	0.0191168
276	4.99855	0	4.99664	0.0679789	4.99746	0.0128432	4.99624	0.0190403
277	4.99855	0	4.99665	0.0677677	4.99746	0.0128267	4.99625	0.0189641
278	4.99855	0	4.99666	0.0675571	4.99747	0.0128102	4.99627	0.0188882
279	4.99855	0	4.99667	0.0673472	4.99747	0.0127938	4.99628	0.0188126
280	4.99855	0	4.99668	0.0671379	4.99747	0.0127774	4.9963	0.0187372
281	4.99855	0	4.99669	0.0669293	4.99747	0.012761	4.99631	0.0186622
282	4.99855	0	4.9967	0.0667214	4.99748	0.0127446	4.99633	0.0185875
283	4.99855	0	4.99671	0.066514	4.99748	0.0127282	4.99634	0.0185131
284	4.99855	0	4.99672	0.0663074	4.99749	0.0127119	4.99636	0.018439
285	4.99855	0	4.99673	0.0661013	4.99749	0.0126956	4.99637	0.0183652
286	4.99855	0	4.99674	0.0658959	4.99749	0.0126793	4.99639	0.0182916
287	4.99855	0	4.99675	0.0656912	4.99749	0.012663	4.9964	0.0182184
288	4.99855	0	4.99676	0.0654871	4.9975	0.0126468	4.99641	0.0181455
289	4.99856	0	4.99677	0.0652836	4.9975	0.0126305	4.99643	0.0180728
290	4.99856	0	4.99678	0.0650807	4.9975	0.0126143	4.99644	0.0180005
291	4.99856	0	4.99679	0.0648785	4.99751	0.0125981	4.99646	0.0179284
292	4.99856	0	4.9968	0.0646769	4.99751	0.0125819	4.99647	0.0178566
293	4.99856	0	4.99681	0.0644759	4.99751	0.0125658	4.99649	0.0177852
294	4.99856	0	4.99682	0.0642756	4.99752	0.0125497	4.9965	0.0177139
295	4.99856	0	4.99683	0.0640759	4.99752	0.0125335	4.99651	0.017643
296	4.99856	0	4.99684	0.0638768	4.99752	0.0125175	4.99653	0.0175724
297	4.99856	0	4.99685	0.0636783	4.99753	0.0125014	4.99654	0.0175021
